Oscylator harmoniczny - metoda punktu środkowego: $\omega $ = 1, $x_0$ = 1, $v_0$ = 0, $t_\mathrm{max}$ = 100, $\mathrm{d}t$ = 0.01
0 1 0 1
0.01 0.99995 -0.01 0.99995
0.02 0.9998 -0.019999 0.9998
0.03 0.99955 -0.029996 0.99955
0.04 0.9992 -0.03999 0.9992
0.05 0.99875 -0.04998 0.99875
0.06 0.9982 -0.059965 0.998201
0.07 0.997551 -0.069944 0.997551
0.08 0.996802 -0.079916 0.996802
0.09 0.995953 -0.08988 0.995953
0.1 0.995004 -0.0998351 0.995004
0.11 0.993956 -0.10978 0.993956
0.12 0.992808 -0.119714 0.992809
0.13 0.991562 -0.129636 0.991562
0.14 0.990216 -0.139545 0.990216
0.15 0.988771 -0.149441 0.988771
0.16 0.987227 -0.159321 0.987227
0.17 0.985584 -0.169185 0.985585
0.18 0.983843 -0.179033 0.983844
0.19 0.982004 -0.188862 0.982004
0.2 0.980066 -0.198673 0.980067
0.21 0.97803 -0.208463 0.978031
0.22 0.975897 -0.218233 0.975897
0.23 0.973666 -0.227981 0.973666
0.24 0.971337 -0.237707 0.971338
0.25 0.968911 -0.247408 0.968912
0.26 0.966389 -0.257085 0.96639
0.27 0.96377 -0.266736 0.963771
0.28 0.961054 -0.27636 0.961055
0.29 0.958243 -0.285957 0.958244
0.3 0.955335 -0.295525 0.955336
0.31 0.952332 -0.305064 0.952334
0.32 0.949234 -0.314572 0.949235
0.33 0.946041 -0.324048 0.946042
0.34 0.942753 -0.333492 0.942755
0.35 0.939371 -0.342903 0.939373
0.36 0.935895 -0.35228 0.935897
0.37 0.932325 -0.361621 0.932327
0.38 0.928662 -0.370926 0.928665
0.39 0.924907 -0.380194 0.924909
0.4 0.921058 -0.389425 0.921061
0.41 0.917118 -0.398616 0.917121
0.42 0.913086 -0.407767 0.913089
0.43 0.908963 -0.416877 0.908966
0.44 0.904749 -0.425946 0.904752
0.45 0.900444 -0.434972 0.900447
0.46 0.896049 -0.443955 0.896052
0.47 0.891565 -0.452893 0.891568
0.48 0.886991 -0.461786 0.886995
0.49 0.882329 -0.470633 0.882333
0.5 0.877579 -0.479433 0.877583
0.51 0.87274 -0.488185 0.872745
0.52 0.867815 -0.496888 0.867819
0.53 0.862803 -0.505541 0.862807
0.54 0.857704 -0.514144 0.857709
0.55 0.85252 -0.522695 0.852525
0.56 0.84725 -0.531194 0.847255
0.57 0.841896 -0.53964 0.841901
0.58 0.836457 -0.548032 0.836463
0.59 0.830935 -0.556369 0.830941
0.6 0.82533 -0.564651 0.825336
0.61 0.819642 -0.572876 0.819648
0.62 0.813873 -0.581044 0.813878
0.63 0.808021 -0.589153 0.808028
0.64 0.802089 -0.597204 0.802096
0.65 0.796077 -0.605195 0.796084
0.66 0.789986 -0.613126 0.789992
0.67 0.783815 -0.620995 0.783822
0.68 0.777566 -0.628802 0.777573
0.69 0.771239 -0.636546 0.771246
0.7 0.764835 -0.644227 0.764842
0.71 0.758354 -0.651843 0.758362
0.72 0.751798 -0.659394 0.751806
0.73 0.745166 -0.666879 0.745174
0.74 0.73846 -0.674297 0.738469
0.75 0.73168 -0.681648 0.731689
0.76 0.724827 -0.688931 0.724836
0.77 0.717902 -0.696145 0.717911
0.78 0.710904 -0.703289 0.710914
0.79 0.703836 -0.710363 0.703845
0.8 0.696697 -0.717365 0.696707
0.81 0.689489 -0.724297 0.689498
0.82 0.682211 -0.731155 0.682221
0.83 0.674866 -0.737941 0.674876
0.84 0.667452 -0.744653 0.667463
0.85 0.659973 -0.75129 0.659983
0.86 0.652427 -0.757852 0.652437
0.87 0.644816 -0.764338 0.644827
0.88 0.63714 -0.770748 0.637151
0.89 0.629401 -0.777081 0.629412
0.9 0.621598 -0.783336 0.62161
0.91 0.613734 -0.789513 0.613746
0.92 0.605808 -0.795611 0.60582
0.93 0.597822 -0.801629 0.597834
0.94 0.589775 -0.807567 0.589788
0.95 0.58167 -0.813425 0.581683
0.96 0.573507 -0.819201 0.57352
0.97 0.565286 -0.824895 0.5653
0.98 0.557009 -0.830507 0.557023
0.99 0.548676 -0.836035 0.54869
1 0.540288 -0.84148 0.540302
1.01 0.531847 -0.846841 0.531861
1.02 0.523352 -0.852117 0.523366
1.03 0.514804 -0.857308 0.514819
1.04 0.506205 -0.862413 0.50622
1.05 0.497556 -0.867432 0.497571
1.06 0.488857 -0.872364 0.488872
1.07 0.480109 -0.877209 0.480124
1.08 0.471313 -0.881966 0.471328
1.09 0.462469 -0.886635 0.462485
1.1 0.45358 -0.891216 0.453596
1.11 0.444645 -0.895707 0.444662
1.12 0.435666 -0.900109 0.435682
1.13 0.426643 -0.90442 0.42666
1.14 0.417577 -0.908642 0.417595
1.15 0.40847 -0.912772 0.408487
1.16 0.399322 -0.916811 0.39934
1.17 0.390134 -0.920758 0.390152
1.18 0.380907 -0.924614 0.380925
1.19 0.371642 -0.928376 0.37166
1.2 0.362339 -0.932046 0.362358
1.21 0.353001 -0.935623 0.353019
1.22 0.343627 -0.939106 0.343646
1.23 0.334218 -0.942496 0.334238
1.24 0.324777 -0.945791 0.324796
1.25 0.315303 -0.948991 0.315322
1.26 0.305797 -0.952097 0.305817
1.27 0.296261 -0.955107 0.296281
1.28 0.286695 -0.958022 0.286715
1.29 0.2771 -0.960841 0.277121
1.3 0.267478 -0.963564 0.267499
1.31 0.257829 -0.966191 0.25785
1.32 0.248154 -0.968721 0.248175
1.33 0.238455 -0.971154 0.238476
1.34 0.228731 -0.97349 0.228753
1.35 0.218985 -0.975728 0.219007
1.36 0.209217 -0.97787 0.209239
1.37 0.199427 -0.979913 0.19945
1.38 0.189618 -0.981858 0.189641
1.39 0.17979 -0.983705 0.179813
1.4 0.169944 -0.985454 0.169967
1.41 0.160081 -0.987104 0.160104
1.42 0.150202 -0.988655 0.150225
1.43 0.140308 -0.990108 0.140332
1.44 0.1304 -0.991462 0.130424
1.45 0.120479 -0.992716 0.120503
1.46 0.110546 -0.993871 0.11057
1.47 0.100601 -0.994927 0.100626
1.48 0.0906471 -0.995883 0.0906716
1.49 0.0806837 -0.99674 0.0807084
1.5 0.0707123 -0.997497 0.0707372
1.51 0.0607338 -0.998154 0.0607589
1.52 0.0507492 -0.998712 0.0507745
1.53 0.0407595 -0.999169 0.040785
1.54 0.0307658 -0.999527 0.0307915
1.55 0.020769 -0.999784 0.0207948
1.56 0.0107701 -0.999942 0.0107961
1.57 0.000770161 -1 0.000796327
1.58 -0.00922988 -0.999958 -0.00920354
1.59 -0.019229 -0.999815 -0.0192025
1.6 -0.0292262 -0.999573 -0.0291995
1.61 -0.0392205 -0.999231 -0.0391936
1.62 -0.0492108 -0.998789 -0.0491838
1.63 -0.0591962 -0.998247 -0.0591691
1.64 -0.0691757 -0.997605 -0.0691484
1.65 -0.0791483 -0.996863 -0.0791209
1.66 -0.089113 -0.996022 -0.0890854
1.67 -0.0990688 -0.995081 -0.099041
1.68 -0.109015 -0.99404 -0.108987
1.69 -0.11895 -0.992901 -0.118922
1.7 -0.128873 -0.991661 -0.128844
1.71 -0.138783 -0.990323 -0.138755
1.72 -0.148679 -0.988886 -0.148651
1.73 -0.158561 -0.987349 -0.158532
1.74 -0.168426 -0.985715 -0.168397
1.75 -0.178275 -0.983981 -0.178246
1.76 -0.188106 -0.982149 -0.188077
1.77 -0.197918 -0.980219 -0.197889
1.78 -0.20771 -0.978191 -0.207681
1.79 -0.217482 -0.976065 -0.217452
1.8 -0.227231 -0.973841 -0.227202
1.81 -0.236958 -0.97152 -0.236929
1.82 -0.246662 -0.969102 -0.246632
1.83 -0.25634 -0.966587 -0.256311
1.84 -0.265993 -0.963975 -0.265964
1.85 -0.27562 -0.961267 -0.27559
1.86 -0.285219 -0.958463 -0.285189
1.87 -0.294789 -0.955563 -0.294759
1.88 -0.30433 -0.952567 -0.3043
1.89 -0.313841 -0.949476 -0.313811
1.9 -0.32332 -0.94629 -0.32329
1.91 -0.332766 -0.94301 -0.332736
1.92 -0.34218 -0.939635 -0.34215
1.93 -0.351559 -0.936166 -0.351529
1.94 -0.360903 -0.932604 -0.360873
1.95 -0.370211 -0.928948 -0.370181
1.96 -0.379482 -0.925199 -0.379452
1.97 -0.388715 -0.921358 -0.388685
1.98 -0.397909 -0.917425 -0.397879
1.99 -0.407064 -0.9134 -0.407033
2 -0.416177 -0.909284 -0.416147
2.01 -0.425249 -0.905077 -0.425219
2.02 -0.434279 -0.900779 -0.434248
2.03 -0.443265 -0.896391 -0.443234
2.04 -0.452207 -0.891914 -0.452176
2.05 -0.461103 -0.887347 -0.461073
2.06 -0.469954 -0.882691 -0.469923
2.07 -0.478757 -0.877948 -0.478727
2.08 -0.487512 -0.873116 -0.487482
2.09 -0.496219 -0.868198 -0.496189
2.1 -0.504876 -0.863192 -0.504846
2.11 -0.513483 -0.8581 -0.513453
2.12 -0.522038 -0.852922 -0.522008
2.13 -0.530542 -0.847659 -0.530511
2.14 -0.538992 -0.842311 -0.538961
2.15 -0.547388 -0.836879 -0.547358
2.16 -0.555729 -0.831364 -0.555699
2.17 -0.564015 -0.825765 -0.563985
2.18 -0.572245 -0.820083 -0.572215
2.19 -0.580417 -0.81432 -0.580387
2.2 -0.588531 -0.808475 -0.588501
2.21 -0.596586 -0.802549 -0.596557
2.22 -0.604582 -0.796543 -0.604552
2.23 -0.612517 -0.790458 -0.612488
2.24 -0.620391 -0.784293 -0.620362
2.25 -0.628203 -0.77805 -0.628174
2.26 -0.635952 -0.771729 -0.635923
2.27 -0.643638 -0.765331 -0.643608
2.28 -0.651259 -0.758856 -0.65123
2.29 -0.658815 -0.752306 -0.658786
2.3 -0.666305 -0.74568 -0.666276
2.31 -0.673728 -0.73898 -0.6737
2.32 -0.681084 -0.732205 -0.681056
2.33 -0.688372 -0.725358 -0.688344
2.34 -0.695592 -0.718438 -0.695563
2.35 -0.702741 -0.711446 -0.702713
2.36 -0.70982 -0.704383 -0.709793
2.37 -0.716829 -0.69725 -0.716801
2.38 -0.723765 -0.690046 -0.723738
2.39 -0.73063 -0.682774 -0.730602
2.4 -0.737421 -0.675434 -0.737394
2.41 -0.744138 -0.668026 -0.744111
2.42 -0.750781 -0.660551 -0.750755
2.43 -0.757349 -0.65301 -0.757323
2.44 -0.763842 -0.645404 -0.763815
2.45 -0.770258 -0.637733 -0.770231
2.46 -0.776596 -0.629999 -0.77657
2.47 -0.782858 -0.622202 -0.782832
2.48 -0.78904 -0.614342 -0.789015
2.49 -0.795144 -0.606421 -0.795119
2.5 -0.801169 -0.598439 -0.801144
2.51 -0.807113 -0.590397 -0.807088
2.52 -0.812977 -0.582297 -0.812952
2.53 -0.818759 -0.574138 -0.818735
2.54 -0.82446 -0.565922 -0.824435
2.55 -0.830077 -0.557649 -0.830054
2.56 -0.835612 -0.54932 -0.835589
2.57 -0.841064 -0.540936 -0.84104
2.58 -0.846431 -0.532499 -0.846408
2.59 -0.851714 -0.524008 -0.851691
2.6 -0.856911 -0.515464 -0.856889
2.61 -0.862023 -0.50687 -0.862001
2.62 -0.867049 -0.498224 -0.867027
2.63 -0.871988 -0.489529 -0.871966
2.64 -0.876839 -0.480784 -0.876818
2.65 -0.881603 -0.471992 -0.881582
2.66 -0.886279 -0.463152 -0.886258
2.67 -0.890866 -0.454266 -0.890846
2.68 -0.895364 -0.445335 -0.895344
2.69 -0.899773 -0.436359 -0.899753
2.7 -0.904092 -0.427339 -0.904072
2.71 -0.90832 -0.418277 -0.908301
2.72 -0.912457 -0.409173 -0.912438
2.73 -0.916503 -0.400028 -0.916485
2.74 -0.920458 -0.390843 -0.92044
2.75 -0.92432 -0.381619 -0.924302
2.76 -0.92809 -0.372356 -0.928073
2.77 -0.931767 -0.363057 -0.93175
2.78 -0.935351 -0.353721 -0.935335
2.79 -0.938842 -0.34435 -0.938825
2.8 -0.942238 -0.334944 -0.942222
2.81 -0.945541 -0.325505 -0.945525
2.82 -0.948748 -0.316033 -0.948733
2.83 -0.951861 -0.30653 -0.951847
2.84 -0.954879 -0.296996 -0.954865
2.85 -0.957801 -0.287433 -0.957787
2.86 -0.960628 -0.27784 -0.960614
2.87 -0.963358 -0.26822 -0.963345
2.88 -0.965992 -0.258573 -0.965979
2.89 -0.96853 -0.2489 -0.968517
2.9 -0.97097 -0.239202 -0.970958
2.91 -0.973314 -0.229481 -0.973302
2.92 -0.97556 -0.219736 -0.975549
2.93 -0.977708 -0.20997 -0.977698
2.94 -0.979759 -0.200182 -0.979749
2.95 -0.981712 -0.190374 -0.981702
2.96 -0.983567 -0.180548 -0.983557
2.97 -0.985323 -0.170703 -0.985314
2.98 -0.986981 -0.160841 -0.986972
2.99 -0.98854 -0.150964 -0.988532
3 -0.99 -0.141071 -0.989992
3.01 -0.991361 -0.131164 -0.991354
3.02 -0.992623 -0.121243 -0.992617
3.03 -0.993786 -0.111311 -0.99378
3.04 -0.994849 -0.101368 -0.994844
3.05 -0.995813 -0.0914141 -0.995808
3.06 -0.996678 -0.0814514 -0.996673
3.07 -0.997442 -0.0714805 -0.997438
3.08 -0.998107 -0.0615025 -0.998104
3.09 -0.998672 -0.0515184 -0.998669
3.1 -0.999138 -0.0415291 -0.999135
3.11 -0.999503 -0.0315356 -0.999501
3.12 -0.999768 -0.021539 -0.999767
3.13 -0.999934 -0.0115402 -0.999933
3.14 -0.999999 -0.00154032 -0.999999
3.15 -0.999965 0.00845975 -0.999965
3.16 -0.99983 0.018459 -0.999831
3.17 -0.999595 0.0284563 -0.999597
3.18 -0.999261 0.0384509 -0.999263
3.19 -0.998826 0.0484416 -0.998829
3.2 -0.998292 0.0584274 -0.998295
3.21 -0.997658 0.0684074 -0.997661
3.22 -0.996924 0.0783806 -0.996928
3.23 -0.99609 0.0883459 -0.996095
3.24 -0.995157 0.0983024 -0.995162
3.25 -0.994124 0.108249 -0.99413
3.26 -0.992992 0.118185 -0.992998
3.27 -0.991761 0.128109 -0.991767
3.28 -0.99043 0.13802 -0.990437
3.29 -0.989 0.147917 -0.989008
3.3 -0.987471 0.1578 -0.98748
3.31 -0.985844 0.167667 -0.985853
3.32 -0.984118 0.177517 -0.984128
3.33 -0.982294 0.187349 -0.982304
3.34 -0.980371 0.197163 -0.980382
3.35 -0.978351 0.206957 -0.978362
3.36 -0.976232 0.21673 -0.976244
3.37 -0.974016 0.226481 -0.974028
3.38 -0.971702 0.23621 -0.971715
3.39 -0.969292 0.245915 -0.969305
3.4 -0.966784 0.255596 -0.966798
3.41 -0.96418 0.265251 -0.964194
3.42 -0.961479 0.27488 -0.961494
3.43 -0.958682 0.284481 -0.958698
3.44 -0.955789 0.294053 -0.955806
3.45 -0.952801 0.303596 -0.952818
3.46 -0.949718 0.313109 -0.949735
3.47 -0.946539 0.322591 -0.946557
3.48 -0.943266 0.33204 -0.943285
3.49 -0.939898 0.341456 -0.939918
3.5 -0.936437 0.350838 -0.936457
3.51 -0.932881 0.360185 -0.932902
3.52 -0.929233 0.369496 -0.929254
3.53 -0.925492 0.378769 -0.925513
3.54 -0.921658 0.388005 -0.92168
3.55 -0.917731 0.397203 -0.917755
3.56 -0.913714 0.40636 -0.913737
3.57 -0.909604 0.415477 -0.909629
3.58 -0.905404 0.424552 -0.905429
3.59 -0.901113 0.433585 -0.901139
3.6 -0.896732 0.442574 -0.896758
3.61 -0.892262 0.45152 -0.892288
3.62 -0.887702 0.46042 -0.887729
3.63 -0.883053 0.469274 -0.883081
3.64 -0.878316 0.478081 -0.878345
3.65 -0.873492 0.48684 -0.873521
3.66 -0.86858 0.495551 -0.868609
3.67 -0.863581 0.504212 -0.863611
3.68 -0.858495 0.512822 -0.858526
3.69 -0.853324 0.521382 -0.853356
3.7 -0.848068 0.529889 -0.8481
3.71 -0.842726 0.538343 -0.842759
3.72 -0.837301 0.546743 -0.837334
3.73 -0.831792 0.555089 -0.831826
3.74 -0.826199 0.563379 -0.826234
3.75 -0.820524 0.571613 -0.820559
3.76 -0.814767 0.57979 -0.814803
3.77 -0.808928 0.587908 -0.808965
3.78 -0.803009 0.595968 -0.803046
3.79 -0.797009 0.603968 -0.797047
3.8 -0.790929 0.611908 -0.790968
3.81 -0.784771 0.619787 -0.78481
3.82 -0.778534 0.627604 -0.778573
3.83 -0.772219 0.635358 -0.772259
3.84 -0.765826 0.643048 -0.765867
3.85 -0.759358 0.650674 -0.759399
3.86 -0.752813 0.658235 -0.752855
3.87 -0.746193 0.66573 -0.746236
3.88 -0.739498 0.673159 -0.739542
3.89 -0.73273 0.68052 -0.732774
3.9 -0.725888 0.687814 -0.725932
3.91 -0.718974 0.695038 -0.719018
3.92 -0.711987 0.702193 -0.712033
3.93 -0.70493 0.709278 -0.704976
3.94 -0.697802 0.716292 -0.697848
3.95 -0.690604 0.723234 -0.690651
3.96 -0.683337 0.730104 -0.683385
3.97 -0.676002 0.736901 -0.67605
3.98 -0.668599 0.743624 -0.668648
3.99 -0.661129 0.750273 -0.661179
4 -0.653593 0.756846 -0.653644
4.01 -0.645992 0.763345 -0.646043
4.02 -0.638327 0.769766 -0.638378
4.03 -0.630597 0.776111 -0.630649
4.04 -0.622804 0.782378 -0.622857
4.05 -0.614949 0.788567 -0.615002
4.06 -0.607033 0.794677 -0.607087
4.07 -0.599056 0.800708 -0.59911
4.08 -0.591019 0.806658 -0.591073
4.09 -0.582923 0.812528 -0.582978
4.1 -0.574768 0.818317 -0.574824
4.11 -0.566556 0.824024 -0.566613
4.12 -0.558288 0.829648 -0.558345
4.13 -0.549963 0.835189 -0.550021
4.14 -0.541584 0.840647 -0.541642
4.15 -0.533151 0.846021 -0.533209
4.16 -0.524664 0.85131 -0.524722
4.17 -0.516124 0.856514 -0.516184
4.18 -0.507533 0.861633 -0.507593
4.19 -0.498892 0.866665 -0.498952
4.2 -0.4902 0.871611 -0.490261
4.21 -0.481459 0.876469 -0.481521
4.22 -0.472671 0.88124 -0.472732
4.23 -0.463835 0.885922 -0.463897
4.24 -0.454952 0.890516 -0.455015
4.25 -0.446024 0.895021 -0.446087
4.26 -0.437052 0.899437 -0.437115
4.27 -0.428036 0.903762 -0.4281
4.28 -0.418977 0.907998 -0.419041
4.29 -0.409876 0.912142 -0.409941
4.3 -0.400734 0.916195 -0.400799
4.31 -0.391552 0.920157 -0.391618
4.32 -0.382331 0.924026 -0.382397
4.33 -0.373071 0.927803 -0.373138
4.34 -0.363775 0.931488 -0.363842
4.35 -0.354441 0.935079 -0.354509
4.36 -0.345073 0.938576 -0.345141
4.37 -0.33567 0.94198 -0.335738
4.38 -0.326233 0.94529 -0.326302
4.39 -0.316764 0.948505 -0.316833
4.4 -0.307263 0.951625 -0.307333
4.41 -0.297732 0.95465 -0.297802
4.42 -0.28817 0.95758 -0.288241
4.43 -0.27858 0.960414 -0.278651
4.44 -0.268962 0.963151 -0.269033
4.45 -0.259317 0.965793 -0.259389
4.46 -0.249646 0.968338 -0.249718
4.47 -0.23995 0.970786 -0.240022
4.48 -0.23023 0.973137 -0.230303
4.49 -0.220488 0.97539 -0.22056
4.5 -0.210723 0.977546 -0.210796
4.51 -0.200937 0.979605 -0.20101
4.52 -0.191131 0.981565 -0.191204
4.53 -0.181305 0.983427 -0.181379
4.54 -0.171462 0.985191 -0.171536
4.55 -0.161601 0.986857 -0.161676
4.56 -0.151725 0.988423 -0.1518
4.57 -0.141833 0.989891 -0.141908
4.58 -0.131927 0.99126 -0.132003
4.59 -0.122008 0.99253 -0.122084
4.6 -0.112076 0.9937 -0.112153
4.61 -0.102134 0.994771 -0.10221
4.62 -0.092181 0.995743 -0.0922576
4.63 -0.0822189 0.996615 -0.0822958
4.64 -0.0722487 0.997387 -0.0723258
4.65 -0.0622712 0.99806 -0.0623485
4.66 -0.0522875 0.998633 -0.052365
4.67 -0.0422986 0.999106 -0.0423763
4.68 -0.0323054 0.999479 -0.0323833
4.69 -0.022309 0.999752 -0.0223871
4.7 -0.0123103 0.999925 -0.0123887
4.71 -0.00231048 0.999998 -0.00238898
4.72 0.00768961 0.999971 0.00761095
4.73 0.0176889 0.999844 0.0176101
4.74 0.0276865 0.999617 0.0276075
4.75 0.0376813 0.99929 0.0376022
4.76 0.0476723 0.998864 0.047593
4.77 0.0576586 0.998337 0.0575792
4.78 0.067639 0.99771 0.0675595
4.79 0.0776128 0.996984 0.0775331
4.8 0.0875787 0.996158 0.087499
4.81 0.0975359 0.995233 0.0974561
4.82 0.107483 0.994207 0.107403
4.83 0.11742 0.993083 0.11734
4.84 0.127345 0.991859 0.127265
4.85 0.137257 0.990536 0.137177
4.86 0.147156 0.989114 0.147076
4.87 0.15704 0.987593 0.156959
4.88 0.166908 0.985973 0.166827
4.89 0.176759 0.984255 0.176679
4.9 0.186593 0.982438 0.186512
4.91 0.196408 0.980523 0.196327
4.92 0.206203 0.97851 0.206123
4.93 0.215978 0.976399 0.215898
4.94 0.225731 0.97419 0.225651
4.95 0.235462 0.971884 0.235381
4.96 0.245169 0.969481 0.245089
4.97 0.254851 0.966981 0.254771
4.98 0.264508 0.964384 0.264428
4.99 0.274139 0.961691 0.274059
5 0.283742 0.958901 0.283662
5.01 0.293317 0.956016 0.293237
5.02 0.302863 0.953035 0.302783
5.03 0.312378 0.949959 0.312298
5.04 0.321862 0.946787 0.321782
5.05 0.331314 0.943521 0.331234
5.06 0.340732 0.940161 0.340653
5.07 0.350117 0.936707 0.350037
5.08 0.359466 0.933159 0.359387
5.09 0.36878 0.929517 0.368701
5.1 0.378057 0.925783 0.377978
5.11 0.387296 0.921956 0.387217
5.12 0.396496 0.918037 0.396417
5.13 0.405656 0.914026 0.405578
5.14 0.414776 0.909924 0.414698
5.15 0.423855 0.905731 0.423777
5.16 0.432891 0.901447 0.432813
5.17 0.441884 0.897073 0.441806
5.18 0.450832 0.892609 0.450755
5.19 0.459736 0.888056 0.459659
5.2 0.468594 0.883415 0.468517
5.21 0.477404 0.878685 0.477328
5.22 0.486167 0.873867 0.486091
5.23 0.494882 0.868961 0.494806
5.24 0.503546 0.863969 0.503471
5.25 0.512161 0.85889 0.512085
5.26 0.520724 0.853726 0.520649
5.27 0.529235 0.848476 0.529161
5.28 0.537694 0.843141 0.537619
5.29 0.546098 0.837722 0.546024
5.3 0.554448 0.832219 0.554374
5.31 0.562743 0.826633 0.562669
5.32 0.570981 0.820964 0.570908
5.33 0.579162 0.815213 0.579089
5.34 0.587285 0.809381 0.587213
5.35 0.59535 0.803468 0.595278
5.36 0.603354 0.797474 0.603283
5.37 0.611299 0.791401 0.611228
5.38 0.619183 0.785248 0.619112
5.39 0.627004 0.779017 0.626934
5.4 0.634763 0.772708 0.634693
5.41 0.642458 0.766322 0.642389
5.42 0.650089 0.759859 0.65002
5.43 0.657655 0.75332 0.657587
5.44 0.665156 0.746706 0.665088
5.45 0.672589 0.740017 0.672522
5.46 0.679956 0.733254 0.679889
5.47 0.687255 0.726418 0.687188
5.48 0.694484 0.719509 0.694418
5.49 0.701645 0.712528 0.701579
5.5 0.708735 0.705476 0.70867
5.51 0.715754 0.698353 0.71569
5.52 0.722702 0.691161 0.722638
5.53 0.729577 0.683899 0.729514
5.54 0.73638 0.676569 0.736317
5.55 0.743109 0.669172 0.743046
5.56 0.749763 0.661707 0.749702
5.57 0.756343 0.654176 0.756282
5.58 0.762847 0.64658 0.762786
5.59 0.769275 0.638919 0.769215
5.6 0.775625 0.631195 0.775566
5.61 0.781899 0.623407 0.78184
5.62 0.788093 0.615557 0.788035
5.63 0.79421 0.607645 0.794152
5.64 0.800246 0.599673 0.800189
5.65 0.806203 0.59164 0.806147
5.66 0.812079 0.583548 0.812024
5.67 0.817874 0.575399 0.817819
5.68 0.823587 0.567191 0.823533
5.69 0.829218 0.558927 0.829164
5.7 0.834766 0.550607 0.834713
5.71 0.84023 0.542231 0.840178
5.72 0.84561 0.533802 0.845559
5.73 0.850906 0.525319 0.850855
5.74 0.856117 0.516784 0.856067
5.75 0.861242 0.508197 0.861192
5.76 0.866281 0.499559 0.866232
5.77 0.871233 0.490871 0.871185
5.78 0.876098 0.482134 0.876051
